# TITLE Water H2O
# Reference: Soper J. Chem. Phys. 106 (1997) 247. See also Bosio Phys. Rev. A 39 (1989) 6612.
#
# Physical parameters:
# sigma_coh 7.751   coherent scattering cross section in [barn]
# sigma_inc 160.521 incoherent scattering cross section in [barn]
# sigma_abs 0.6654  absorption scattering cross section in [barn]
# density   0.994   in [g/cm^3]
# weight    18.0150 in [g/mol]
# Temperature 293   in [K]
# T_m       273     melting temperature in [K]
# T_b       373     boiling temperature in [K]
#
# Format parameters: Q	S(Q)
# column_q  1
# column_Sq 2
    0.2500    0.8922
    0.3477    0.8848
    0.4453    0.8792
    0.5430    0.8746
    0.6406    0.8710
    0.7383    0.8675
    0.8359    0.8614
    0.9336    0.8590
    1.0312    0.8503
    1.1289    0.8451
    1.2265    0.8480
    1.3242    0.8552
    1.4218    0.8689
    1.5195    0.8880
    1.6171    0.9004
    1.7148    0.9133
    1.8124    0.9257
    1.9101    0.9368
    2.0077    0.9478
    2.1054    0.9561
    2.2030    0.9638
    2.3007    0.9736
    2.3983    0.9843
    2.4960    0.9912
    2.5936    1.0069
    2.6913    1.0292
    2.7889    1.0628
    2.8866    1.0844
    2.9842    1.1059
    3.0819    1.1087
    3.1795    1.1016
    3.2772    1.0821
    3.3748    1.0603
    3.4725    1.0431
    3.5701    1.0224
    3.6678    1.0102
    3.7654    1.0035
    3.8631    0.9956
    3.9607    0.9935
    4.0584    0.9924
    4.1560    0.9970
    4.2537    1.0058
    4.3513    1.0146
    4.4490    1.0278
    4.5466    1.0389
    4.6443    1.0467
    4.7419    1.0572
    4.8396    1.0643
    4.9372    1.0685
    5.0349    1.0717
    5.1326    1.0723
    5.2302    1.0710
    5.3279    1.0686
    5.4255    1.0624
    5.5232    1.0557
    5.6208    1.0453
    5.7185    1.0348
    5.8161    1.0244
    5.9138    1.0170
    6.0114    1.0095
    6.1091    1.0043
    6.2067    0.9992
    6.3044    0.9971
    6.4020    0.9930
    6.4997    0.9930
    6.5973    0.9930
    6.6950    0.9922
    6.7926    0.9887
    6.8903    0.9853
    6.9879    0.9832
    7.0856    0.9802
    7.1832    0.9768
    7.2809    0.9747
    7.3785    0.9743
    7.4762    0.9724
    7.5738    0.9705
    7.6715    0.9686
    7.7691    0.9676
    7.8668    0.9694
    7.9644    0.9706
    8.0621    0.9706
    8.1597    0.9716
    8.2574    0.9745
    8.3550    0.9745
    8.4527    0.9769
    8.5503    0.9805
    8.6480    0.9849
    8.7456    0.9901
    8.8433    0.9936
    8.9409    0.9958
    9.0386    0.9978
    9.1362    0.9996
    9.2339    1.0012
    9.3315    1.0013
    9.4292    1.0051
    9.5268    1.0051
    9.6245    1.0051
    9.7221    1.0048
    9.8198    1.0014
    9.9174    1.0029
   10.0151    1.0052
   10.1128    1.0042
   10.2104    1.0021
   10.3081    1.0026
   10.4057    1.0041
   10.5034    1.0053
   10.6010    1.0054
   10.6987    1.0054
   10.7963    1.0054
   10.8940    1.0054
   10.9916    1.0055
   11.0893    1.0055
   11.1869    1.0063
   11.2846    1.0084
   11.3822    1.0093
   11.4799    1.0094
   11.5775    1.0094
   11.6752    1.0094
   11.7728    1.0094
   11.8705    1.0085
   11.9681    1.0067
   12.0658    1.0057
   12.1634    1.0057
   12.2611    1.0028
   12.3587    0.9998
   12.4564    0.9982
   12.5540    0.9982
   12.6517    0.9983
   12.7493    0.9969
   12.8470    0.9954
   12.9446    0.9945
   13.0423    0.9946
   13.1399    0.9938
   13.2376    0.9912
   13.3352    0.9908
   13.4329    0.9909
   13.5305    0.9909
   13.6282    0.9909
   13.7258    0.9907
   13.8235    0.9892
   13.9211    0.9877
   14.0188    0.9872
   14.1164    0.9872
   14.2141    0.9873
   14.3117    0.9873
   14.4094    0.9873
   14.5070    0.9873
   14.6047    0.9874
   14.7023    0.9908
   14.8000    0.9882

