# TITLE Water H2O-D2O mixture (50-50)
# Reference: Soper J. Chem. Phys. 106 (1997) 247. See also Bosio Phys. Rev. A 39 (1989) 6612.
#
# Physical parameters:
# sigma_coh 11.581  coherent scattering cross section in [barn]
# sigma_inc 82.3108 incoherent scattering cross section in [barn]
# sigma_abs 0.3333  absorption scattering cross section in [barn]
# density   1.05    in [g/cm^3]
# weight    19.021  in [g/mol]
# Temperature 293   in [K]
# T_m       273     melting temperature in [K]
# T_b       373     boiling temperature in [K]
#
# Format parameters: Q	S(Q)
# column_q  1
# column_Sq 2
    0.2500    0.8854
    0.3477    0.8836
    0.4453    0.8821
    0.5430    0.8830
    0.6406    0.8857
    0.7383    0.8860
    0.8359    0.8864
    0.9336    0.8900
    1.0312    0.8935
    1.1289    0.8971
    1.2265    0.9071
    1.3242    0.9178
    1.4218    0.9293
    1.5195    0.9470
    1.6171    0.9691
    1.7148    0.9888
    1.8124    1.0117
    1.9101    1.0280
    2.0077    1.0402
    2.1054    1.0443
    2.2030    1.0439
    2.3007    1.0418
    2.3983    1.0423
    2.4960    1.0456
    2.5936    1.0456
    2.6913    1.0504
    2.7889    1.0533
    2.8866    1.0533
    2.9842    1.0529
    3.0819    1.0407
    3.1795    1.0256
    3.2772    1.0132
    3.3748    0.9998
    3.4725    0.9893
    3.5701    0.9831
    3.6678    0.9814
    3.7654    0.9815
    3.8631    0.9815
    3.9607    0.9815
    4.0584    0.9865
    4.1560    0.9919
    4.2537    0.9968
    4.3513    0.9987
    4.4490    1.0029
    4.5466    1.0075
    4.6443    1.0113
    4.7419    1.0170
    4.8396    1.0196
    4.9372    1.0197
    5.0349    1.0197
    5.1326    1.0187
    5.2302    1.0121
    5.3279    1.0104
    5.4255    1.0071
    5.5232    1.0050
    5.6208    1.0047
    5.7185    0.9970
    5.8161    0.9949
    5.9138    0.9930
    6.0114    0.9915
    6.1091    0.9900
    6.2067    0.9896
    6.3044    0.9923
    6.4020    0.9935
    6.4997    0.9950
    6.5973    0.9968
    6.6950    1.0011
    6.7926    1.0011
    6.8903    1.0026
    6.9879    1.0041
    7.0856    1.0050
    7.1832    1.0050
    7.2809    1.0040
    7.3785    1.0022
    7.4762    0.9989
    7.5738    0.9975
    7.6715    0.9976
    7.7691    0.9976
    7.8668    0.9973
    7.9644    0.9956
    8.0621    0.9939
    8.1597    0.9939
    8.2574    0.9939
    8.3550    0.9939
    8.4527    0.9973
    8.5503    1.0015
    8.6480    1.0009
    8.7456    0.9982
    8.8433    0.9978
    8.9409    0.9979
    9.0386    0.9979
    9.1362    0.9979
    9.2339    0.9993
    9.3315    1.0017
    9.4292    1.0018
    9.5268    1.0018
    9.6245    1.0018
    9.7221    1.0018
    9.8198    1.0019
    9.9174    1.0004
   10.0151    0.9983
   10.1128    0.9981
   10.2104    0.9982
   10.3081    0.9982
   10.4057    0.9982
   10.5034    0.9982
   10.6010    0.9971
   10.6987    0.9958
   10.7963    0.9945
   10.8940    0.9945
   10.9916    0.9963
   11.0893    0.9980
   11.1869    0.9984
   11.2846    0.9984
   11.3822    0.9984
   11.4799    0.9985
   11.5775    0.9985
   11.6752    0.9985
   11.7728    0.9985
   11.8705    0.9986
   11.9681    0.9986
   12.0658    0.9986
   12.1634    0.9973
   12.2611    0.9955
   12.3587    0.9949
   12.4564    0.9949
   12.5540    0.9949
   12.6517    0.9944
   12.7493    0.9929
   12.8470    0.9914
   12.9446    0.9926
   13.0423    0.9941
   13.1399    0.9957
   13.2376    0.9975
   13.3352    0.9983
   13.4329    0.9957
   13.5305    0.9952
   13.6282    0.9952
   13.7258    0.9952
   13.8235    0.9952
   13.9211    0.9953
   14.0188    0.9953
   14.1164    0.9953
   14.2141    0.9953
   14.3117    0.9953
   14.4094    0.9945
   14.5070    0.9928
   14.6047    0.9916
   14.7023    0.9916
   14.8000    0.9917

